z[mm],z/H,U[m/s],U/UH,k[m2/s2],k/UH^2
5,0.02,3.833,0.576,0.529,0.012
10,0.04,4.121,0.620,0.606,0.014
20,0.08,4.321,0.650,0.667,0.015
30,0.12,4.476,0.673,0.666,0.015
50,0.20,4.740,0.713,0.730,0.017
100,0.40,5.320,0.800,0.750,0.017
200,0.80,6.282,0.945,0.744,0.017
300,1.20,6.982,1.050,0.694,0.016
400,1.60,7.550,1.135,0.635,0.014
600,2.40,8.678,1.305,0.456,0.010
800,3.20,9.525,1.432,0.281,0.006
1000,4.00,10.024,1.507,0.126,0.003
1200,4.80,10.071,1.514,0.068,0.002
